Time, Id, Ud, Temperature Measured, Temperature Estimated
1.0024, 3.0, 1.103, 33.8, 41.0
2.9453, 3.0, 1.1011, 33.9, 40.7
3.3295, 3.497, 1.249, 34.0, 41.8
3.9692, 4.003, 1.3877, 34.1, 41.1
4.4173, 4.502, 1.5317, 34.2, 41.5
4.8656, 5.008, 1.6689, 34.3, 40.8
5.3453, 5.491, 1.8335, 34.4, 43.3
5.8253, 6.001, 1.9688, 34.5, 42.4
6.2733, 5.506, 1.8228, 34.6, 42.0
6.7374, 4.998, 1.6929, 34.7, 43.5
7.1375, 4.5, 1.5479, 34.8, 43.3
7.5051, 3.994, 1.4204, 34.9, 45.5
7.8895, 3.497, 1.272, 35.0, 45.0
8.2255, 3.0, 1.1147, 35.1, 42.9
8.5775, 3.5, 1.2749, 35.2, 45.3
8.8975, 4.009, 1.4048, 35.3, 43.0
9.2336, 4.503, 1.5439, 35.4, 42.7
9.6175, 5.003, 1.6895, 35.5, 43.0
9.9856, 5.503, 1.8423, 35.6, 43.8
10.3694, 6.0, 1.9897, 35.7, 44.2
10.8653, 5.51, 1.8398, 35.8, 43.4
11.4091, 5.001, 1.7144, 35.9, 45.5
11.7615, 4.496, 1.5742, 36.0, 46.3
12.1294, 3.994, 1.4312, 36.1, 46.8
12.5135, 3.505, 1.2725, 36.2, 44.7
12.8657, 3.004, 1.1255, 36.3, 44.5
13.2016, 3.499, 1.2822, 36.4, 46.4
13.4255, 4.009, 1.4131, 36.5, 44.0
13.6016, 4.506, 1.5591, 36.6, 44.3
13.7774, 5.003, 1.7104, 36.7, 45.0
13.9375, 5.495, 1.8657, 36.8, 46.1
14.1295, 6.001, 1.9946, 36.9, 44.5
14.3056, 5.507, 1.853, 37.0, 44.7
14.6898, 5.002, 1.7148, 37.1, 45.5
14.8974, 4.505, 1.5693, 37.2, 45.4
15.1054, 3.999, 1.4297, 37.3, 46.4
15.2975, 3.506, 1.2749, 37.4, 45.0
15.4895, 2.999, 1.1357, 37.5, 46.4
15.6814, 3.496, 1.2871, 37.6, 47.2
15.9054, 3.999, 1.4287, 37.7, 46.3
16.1452, 4.506, 1.5679, 37.8, 45.2
16.3534, 5.005, 1.709, 37.9, 44.8
16.5611, 5.501, 1.8633, 38.0, 45.7
16.7534, 5.995, 2.0215, 38.1, 46.9
16.9455, 5.506, 1.8652, 38.2, 45.8
17.1693, 5.001, 1.7256, 38.3, 46.6
17.4414, 4.499, 1.5825, 38.4, 47.1
17.6813, 4.001, 1.4316, 38.5, 46.6
17.9537, 3.505, 1.2856, 38.6, 46.6
18.1933, 3.0, 1.1411, 38.7, 47.2
18.4175, 3.499, 1.2896, 38.8, 47.4
18.6414, 3.997, 1.437, 38.9, 47.4
18.8973, 3.997, 1.437, 39.0, 47.4
19.1055, 4.996, 1.728, 39.1, 47.0
19.3611, 5.492, 1.8799, 39.2, 47.5
19.6973, 6.0, 2.0195, 39.3, 46.6
20.0015, 5.503, 1.877, 39.4, 46.9
20.2415, 5.002, 1.7285, 39.5, 46.8
20.5132, 4.501, 1.5874, 39.6, 47.5
20.7698, 3.999, 1.4404, 39.7, 47.7
21.0574, 3.508, 1.2847, 39.8, 46.3
21.2815, 2.995, 1.1562, 39.9, 49.9
21.5054, 3.493, 1.3047, 40.0, 49.7
21.7776, 4.007, 1.4302, 40.1, 46.2
22.0014, 4.5, 1.584, 40.2, 47.2
22.2254, 5.006, 1.7246, 40.3, 46.3
22.4655, 5.501, 1.876, 40.4, 46.9
22.6894, 6.002, 2.021, 40.5, 46.7
22.9295, 5.497, 1.8867, 40.6, 48.0
23.1691, 4.999, 1.7407, 40.7, 48.1
23.3934, 4.504, 1.5889, 40.8, 47.6
23.6334, 4.0, 1.4453, 40.9, 48.3
23.8894, 3.504, 1.2964, 41.0, 48.1
24.1455, 2.997, 1.1567, 41.1, 49.9
24.3852, 3.495, 1.3091, 41.2, 50.3
24.8976, 3.995, 1.457, 41.3, 49.9
25.2174, 4.5, 1.5923, 41.4, 48.1
25.7294, 4.998, 1.7441, 41.5, 48.5
26.0653, 5.5, 1.8984, 41.6, 48.9
26.4014, 6.001, 2.0376, 41.7, 48.0
26.7857, 5.501, 1.8887, 41.8, 48.0
27.2814, 5.0, 1.7559, 41.9, 49.6
27.5857, 4.498, 1.6035, 42.0, 49.4
27.8895, 3.996, 1.4614, 42.1, 50.4
28.2255, 3.501, 1.3037, 42.2, 49.3
28.5455, 2.999, 1.1582, 42.3, 50.1
28.8814, 3.494, 1.3125, 42.4, 50.8
29.1856, 4.002, 1.4546, 42.5, 49.3
29.5218, 4.502, 1.606, 42.6, 49.5
29.8419, 5.0, 1.7456, 42.7, 48.6
30.3058, 5.505, 1.8931, 42.8, 48.3
31.09, 6.0, 2.0532, 42.9, 49.3
31.394, 5.497, 1.9126, 43.0, 50.3
31.7141, 4.997, 1.7651, 43.1, 50.6
31.9863, 4.504, 1.6069, 43.2, 49.6
32.1939, 4.001, 1.4668, 43.3, 50.9
32.3858, 3.498, 1.3149, 43.4, 51.0
32.5463, 3.003, 1.1577, 43.5, 49.8
32.738, 3.505, 1.3018, 43.6, 48.8
32.9618, 3.999, 1.4604, 43.7, 50.2
33.1856, 4.494, 1.6226, 43.8, 51.6
33.4097, 5.002, 1.752, 43.9, 49.1
33.6019, 5.507, 1.9067, 44.0, 49.5
33.7936, 6.005, 2.0498, 44.1, 48.9
33.9695, 5.506, 1.9014, 44.2, 49.0
34.1614, 5.012, 1.7495, 44.3, 48.6
34.3536, 4.5, 1.6157, 44.4, 50.7
34.5615, 4.0, 1.4697, 44.5, 51.3
34.8013, 3.504, 1.3184, 44.6, 51.2
35.0253, 3.0, 1.1572, 44.7, 49.8
35.2337, 3.495, 1.3213, 44.8, 52.0
35.4577, 3.998, 1.4727, 44.9, 51.7
35.6981, 4.512, 1.5962, 45.0, 48.1
36.0498, 5.001, 1.7627, 45.1, 50.2
36.3541, 5.5, 1.916, 45.2, 50.5
37.0262, 5.5, 1.916, 45.3, 50.5
37.5702, 6.012, 2.0601, 45.4, 49.6
37.8098, 4.991, 1.7871, 45.5, 52.9
38.0019, 4.5, 1.6211, 45.6, 51.2
38.2101, 4.005, 1.4707, 45.7, 51.2
38.37, 3.496, 1.3311, 45.8, 53.3
38.5299, 3.01, 1.1606, 45.9, 49.9
38.7219, 3.504, 1.3184, 46.0, 51.2
38.9777, 4.001, 1.4731, 46.1, 51.7
39.2017, 4.499, 1.6274, 46.2, 52.0
39.4896, 4.997, 1.7778, 46.3, 51.8
39.7939, 5.508, 1.916, 46.4, 50.3
40.2417, 6.007, 2.0723, 46.5, 50.7
40.8818, 5.498, 1.937, 46.6, 52.4
41.1059, 5.002, 1.7852, 46.7, 52.4
41.4099, 4.498, 1.6372, 46.8, 53.1
41.7139, 3.997, 1.4873, 46.9, 53.6
42.002, 3.491, 1.3433, 47.0, 55.2
42.7225, 3.009, 1.1499, 47.1, 48.2
43.0097, 3.502, 1.3198, 47.2, 51.5
43.2496, 3.502, 1.3198, 47.3, 51.5
44.1456, 4.003, 1.4736, 47.4, 51.6
44.5621, 5.0, 1.7773, 47.5, 51.7
45.8899, 5.494, 1.9453, 47.6, 53.2
46.1458, 6.01, 2.0742, 47.7, 50.8
46.3856, 5.502, 1.9385, 47.8, 52.4
46.6259, 4.996, 1.8037, 47.9, 54.4
46.8499, 4.503, 1.6343, 48.0, 52.6
47.3939, 4.003, 1.4829, 48.1, 52.8
48.0338, 3.492, 1.3496, 48.2, 56.1
48.2421, 2.992, 1.1855, 48.3, 54.9
48.4338, 3.499, 1.332, 48.4, 53.3
48.594, 4.0, 1.4795, 48.5, 52.5
48.7697, 4.494, 1.6421, 48.6, 53.7
48.9138, 4.997, 1.7876, 48.7, 52.8
49.0738, 5.51, 1.9233, 48.8, 50.9
49.2819, 5.997, 2.0957, 48.9, 52.9
49.4738, 5.488, 1.96, 49.0, 54.7
49.6499, 5.003, 1.7866, 49.1, 52.5
49.8259, 4.502, 1.6362, 49.2, 52.8
50.1138, 4.005, 1.479, 49.3, 52.2
50.3539, 3.504, 1.3286, 49.4, 52.6
50.6898, 3.001, 1.1807, 49.5, 53.6
50.9137, 3.506, 1.3228, 49.6, 51.7
51.762, 3.996, 1.4888, 49.7, 53.8
52.0019, 4.5, 1.6431, 49.8, 53.6
52.2257, 5.0, 1.7871, 49.9, 52.6
52.5137, 5.494, 1.9463, 50.0, 53.3
52.9941, 6.002, 2.0933, 50.1, 52.6
53.2499, 5.496, 1.9521, 50.2, 53.8
53.5064, 5.001, 1.792, 50.3, 53.1
53.9699, 4.5, 1.645, 50.4, 53.9
54.2257, 3.993, 1.5068, 50.5, 56.1
54.4817, 3.498, 1.3457, 50.6, 55.3
54.7378, 3.002, 1.1714, 50.7, 52.1
54.9936, 3.503, 1.3301, 50.8, 52.9
55.2656, 3.989, 1.502, 50.9, 55.7
55.5379, 4.5, 1.6431, 51.0, 53.6
56.082, 5.007, 1.7822, 51.1, 51.9
56.3698, 5.502, 1.9473, 51.2, 53.2
56.7859, 6.004, 2.0981, 51.3, 52.9
57.0419, 5.502, 1.958, 51.4, 54.2
57.2659, 5.002, 1.8003, 51.5, 53.9
57.5059, 4.5, 1.6528, 51.6, 54.7
57.762, 4.002, 1.4956, 51.7, 54.4
58.0019, 3.49, 1.3511, 51.8, 56.4
58.2579, 3.008, 1.1758, 51.9, 52.5
58.5298, 3.49, 1.3589, 52.0, 57.5
58.8662, 4.006, 1.4907, 52.1, 53.6
59.1218, 4.496, 1.6533, 52.2, 54.9
59.4098, 5.006, 1.7959, 52.3, 53.3
59.7443, 5.504, 1.9536, 52.4, 53.7
60.0661, 6.003, 2.0967, 52.5, 52.8
60.5779, 5.499, 1.9526, 52.6, 53.8
60.9941, 5.001, 1.8008, 52.7, 53.9
61.3461, 4.497, 1.6553, 52.8, 55.1
61.6498, 4.004, 1.4966, 52.9, 54.4
62.002, 3.499, 1.3511, 53.0, 56.0
63.2184, 3.005, 1.1812, 53.1, 53.5
64.1144, 3.508, 1.3374, 53.2, 53.7
65.9384, 4.001, 1.4932, 53.3, 54.1
66.6744, 4.511, 1.6328, 53.4, 52.1
67.0104, 5.005, 1.7988, 53.5, 53.6
67.6023, 5.499, 1.9673, 53.6, 55.1
68.0825, 5.995, 2.1206, 53.7, 55.0
68.4985, 5.498, 1.9692, 53.8, 55.3
68.8985, 4.99, 1.8325, 53.9, 57.4
69.1863, 4.504, 1.6553, 54.0, 54.8
69.4584, 3.995, 1.5088, 54.1, 56.3
69.7465, 3.497, 1.354, 54.2, 56.5
70.0981, 3.002, 1.1919, 54.3, 55.4
70.3544, 3.501, 1.3477, 54.4, 55.4
70.6263, 3.993, 1.5132, 54.5, 56.9
70.8822, 4.505, 1.6494, 54.6, 54.1
71.1224, 5.003, 1.8101, 54.7, 54.8
71.3437, 5.508, 1.9614, 54.8, 54.3
71.6984, 6.002, 2.1157, 54.9, 54.4
72.9781, 5.486, 2.002, 55.0, 58.5
73.266, 5.008, 1.8145, 55.1, 55.1
73.4739, 4.499, 1.6704, 55.2, 56.6
73.7301, 4.014, 1.498, 55.3, 54.2
73.9859, 3.511, 1.3423, 55.4, 54.2
74.2421, 2.995, 1.2114, 55.5, 59.0
74.466, 3.503, 1.3516, 55.6, 55.9
74.69, 4.011, 1.4971, 55.7, 54.2
74.8981, 4.498, 1.6704, 55.8, 56.7
75.1063, 4.997, 1.8257, 55.9, 56.5
75.2979, 5.5, 1.9746, 56.0, 55.7
75.506, 6.0, 2.1338, 56.1, 55.9
75.6979, 5.51, 1.9707, 56.2, 55.1
75.9539, 4.997, 1.833, 56.3, 57.2
77.0265, 4.501, 1.6699, 56.4, 56.5
77.2504, 3.996, 1.5161, 56.5, 57.1
77.4747, 3.5, 1.3643, 56.6, 57.8
77.7467, 3.016, 1.1787, 56.7, 52.6
78.3067, 3.502, 1.3555, 56.8, 56.5
78.5461, 3.996, 1.5225, 56.9, 57.9
79.0906, 4.498, 1.6748, 57.0, 57.2
79.3303, 4.999, 1.8311, 57.1, 57.0
79.6982, 5.504, 1.9771, 57.2, 55.8
79.9543, 6.002, 2.1323, 57.3, 55.8
80.4023, 5.503, 1.9858, 57.4, 56.6
80.6903, 4.994, 1.8403, 57.5, 58.0
80.9942, 4.498, 1.6748, 57.6, 57.2
81.7625, 3.997, 1.5234, 57.7, 58.0
82.002, 3.495, 1.3745, 57.8, 59.4
82.1949, 2.997, 1.209, 57.9, 58.5
82.4025, 3.488, 1.3794, 58.0, 60.5
82.5946, 3.995, 1.5278, 58.1, 58.6
82.8184, 4.504, 1.666, 58.2, 56.0
83.4267, 4.999, 1.8374, 58.3, 57.6
83.6664, 5.494, 1.9985, 58.4, 58.0
84.0664, 6.01, 2.1353, 58.5, 55.8
84.3842, 5.502, 1.9897, 58.6, 57.0
84.6745, 5.004, 1.832, 58.7, 56.9
85.1385, 4.5, 1.688, 58.8, 58.5
85.4105, 4.001, 1.5215, 58.9, 57.6
85.8747, 3.498, 1.3662, 59.0, 58.1
86.5147, 2.995, 1.2119, 59.1, 59.0
86.739, 3.494, 1.376, 59.2, 59.7
86.9946, 4.004, 1.5151, 59.3, 56.7
87.2187, 4.5, 1.6719, 59.4, 56.8
87.4581, 5.001, 1.8325, 59.5, 57.0
87.6983, 5.496, 2.001, 59.6, 58.2
89.7465, 5.998, 2.1631, 59.7, 58.4
90.066, 5.495, 2.022, 59.8, 60.1
90.3701, 5.007, 1.8462, 59.9, 58.2
91.1063, 4.501, 1.6924, 60.0, 59.0
91.3622, 4.004, 1.5317, 60.1, 58.7
91.6185, 3.497, 1.3799, 60.2, 60.1
91.8422, 2.994, 1.2207, 60.3, 60.5
92.1143, 3.506, 1.3701, 60.4, 58.3
92.3861, 4.004, 1.5312, 60.5, 58.7
92.6742, 4.49, 1.71, 60.6, 61.3
92.9464, 5.005, 1.8442, 60.7, 58.1
93.2343, 5.504, 1.9971, 60.8, 57.6
93.5864, 5.993, 2.1733, 60.9, 59.3
94.1142, 5.498, 2.0186, 61.0, 59.7
94.37, 5.007, 1.8491, 61.1, 58.5
94.626, 4.5, 1.6968, 61.2, 59.5
94.8826, 4.002, 1.5371, 61.3, 59.5
95.1223, 3.502, 1.3745, 61.4, 59.1
95.4101, 3.0, 1.2251, 61.5, 61.0
95.7142, 3.502, 1.3784, 61.6, 59.7
96.5782, 3.991, 1.5547, 61.7, 62.0
96.8662, 4.504, 1.6895, 61.8, 58.5
97.1543, 5.003, 1.8481, 61.9, 58.5
97.4741, 5.5, 2.0088, 62.0, 58.7
98.1622, 6.001, 2.1729, 62.1, 59.1
98.9632, 5.498, 2.0225, 62.2, 60.0
99.2023, 4.991, 1.873, 62.3, 61.3
99.4421, 4.493, 1.7129, 62.4, 61.5
99.6505, 4.0, 1.5459, 62.5, 60.6
99.8582, 3.505, 1.3765, 62.6, 59.3
100.0984, 3.002, 1.2236, 62.7, 60.6
100.3221, 3.502, 1.377, 62.8, 59.4
100.562, 4.002, 1.5415, 62.9, 60.0
100.8184, 4.5, 1.7026, 63.0, 60.1
101.3783, 4.989, 1.876, 63.1, 61.7
102.0345, 5.5, 2.0264, 63.2, 60.3
102.3233, 6.0, 2.1787, 63.3, 59.6
102.7224, 5.503, 2.0234, 63.4, 59.9
103.0266, 5.006, 1.8589, 63.5, 59.5
103.3464, 4.501, 1.7139, 63.6, 61.3
103.6341, 4.003, 1.5425, 63.7, 60.1
103.9066, 3.507, 1.375, 63.8, 59.0
104.1623, 3.004, 1.2241, 63.9, 60.6
104.3866, 3.497, 1.3867, 64.0, 61.1
104.6425, 3.999, 1.5493, 64.1, 61.1
104.8984, 4.51, 1.6929, 64.2, 58.7
105.1222, 4.99, 1.875, 64.3, 61.6
105.3465, 5.5, 2.0234, 64.4, 60.0
105.7305, 6.001, 2.1797, 64.5, 59.6
106.6424, 5.491, 2.0439, 64.6, 62.1
106.9147, 5.491, 2.0439, 64.7, 62.1
107.2186, 4.507, 1.7017, 64.8, 59.8
108.0986, 4.0, 1.5493, 64.9, 61.0
108.8505, 3.502, 1.3916, 65.0, 61.5
109.0905, 3.007, 1.2231, 65.1, 60.3
109.3304, 3.504, 1.3789, 65.2, 59.6
109.5704, 4.003, 1.5439, 65.3, 60.2
109.8267, 4.493, 1.7192, 65.4, 62.2
110.1142, 4.998, 1.8643, 65.5, 60.3
111.6344, 5.497, 2.0376, 65.6, 61.4
112.1626, 6.002, 2.1948, 65.7, 60.8
112.5791, 5.494, 2.0454, 65.8, 62.2
112.8347, 4.999, 1.8857, 65.9, 62.3
113.0584, 4.5, 1.7178, 66.0, 61.8
113.3145, 3.994, 1.5713, 66.1, 64.0
113.9067, 3.51, 1.3857, 66.2, 60.3
114.1465, 3.006, 1.2246, 66.3, 60.5
114.3707, 3.503, 1.3818, 66.4, 60.1
114.5785, 3.99, 1.563, 66.5, 63.1
114.8187, 4.512, 1.6958, 66.6, 59.0
115.282, 4.994, 1.8848, 66.7, 62.4
116.6583, 5.504, 2.0396, 66.8, 61.4
116.8827, 6.004, 2.1982, 66.9, 61.1
117.0744, 5.492, 2.0532, 67.0, 62.9
117.2827, 4.996, 1.894, 67.1, 63.3
117.4742, 4.501, 1.7158, 67.2, 61.5
117.6825, 3.997, 1.5659, 67.3, 63.2
117.9384, 3.511, 1.3882, 67.4, 60.6
118.2268, 2.999, 1.2388, 67.5, 63.2
118.4668, 3.498, 1.4038, 67.6, 63.4
118.7225, 4.006, 1.5493, 67.7, 60.8
118.9944, 4.5, 1.7207, 67.8, 62.1
119.2827, 5.006, 1.8706, 67.9, 60.6
120.1148, 5.499, 2.0474, 68.0, 62.2
120.4509, 6.001, 2.2085, 68.1, 62.0
120.6747, 5.504, 2.0425, 68.2, 61.6
121.3307, 5.002, 1.8828, 68.3, 61.9
121.8748, 4.498, 1.7217, 68.4, 62.3
122.2112, 4.006, 1.5591, 68.5, 62.0
122.5147, 3.505, 1.3965, 68.6, 62.0
122.8026, 2.996, 1.2407, 68.7, 63.7
123.1064, 3.497, 1.4077, 68.8, 64.0
123.4426, 3.992, 1.5747, 68.9, 64.5
123.9546, 4.5, 1.7246, 69.0, 62.5
124.7546, 5.007, 1.8799, 69.1, 61.5
125.2024, 5.499, 2.0498, 69.2, 62.4
125.6025, 6.004, 2.207, 69.3, 61.8
125.9869, 5.499, 2.0537, 69.4, 62.8
126.3544, 5.0, 1.8896, 69.5, 62.7
126.6744, 4.497, 1.7354, 69.6, 63.8
127.4426, 4.007, 1.5596, 69.7, 62.0
127.6985, 3.496, 1.4102, 69.8, 64.4
127.9225, 3.004, 1.2427, 69.9, 63.6
128.1306, 3.501, 1.4043, 70.0, 63.3
128.3705, 3.998, 1.5747, 70.1, 64.3
128.6425, 4.504, 1.7222, 70.2, 62.1
128.9145, 5.0, 1.8945, 70.3, 63.2
130.0027, 5.502, 2.0547, 70.4, 62.8
130.5148, 6.0, 2.2275, 70.5, 63.6
130.7869, 5.5, 2.0649, 70.6, 63.8
131.0265, 4.994, 1.9053, 70.7, 64.4
131.2827, 4.497, 1.7427, 70.8, 64.6
131.6187, 4.008, 1.5669, 70.9, 62.9
132.1469, 3.497, 1.4165, 71.0, 65.2
132.4189, 2.997, 1.2549, 71.1, 66.0
132.6746, 3.497, 1.4165, 71.2, 65.3
132.9465, 4.003, 1.5679, 71.3, 63.2
133.2027, 4.501, 1.7378, 71.4, 63.9
133.667, 5.001, 1.8936, 71.5, 63.0
134.5924, 5.491, 2.0752, 71.6, 64.9
136.3389, 6.006, 2.2285, 71.7, 63.5
136.5146, 5.489, 2.0918, 71.8, 66.5
136.6908, 4.999, 1.9189, 71.9, 65.6
136.9787, 4.497, 1.7495, 72.0, 65.3
137.1705, 3.995, 1.5972, 72.1, 67.1
137.4107, 3.504, 1.4102, 72.2, 64.0
137.6345, 2.997, 1.2578, 72.3, 66.5
137.8587, 3.492, 1.4326, 72.4, 67.7
142.691, 3.994, 1.5811, 72.5, 65.2
143.2507, 4.492, 1.7534, 72.6, 65.9
143.891, 5.007, 1.894, 72.7, 62.9
144.1468, 5.497, 2.0767, 72.8, 64.9
144.3707, 6.009, 2.2163, 72.9, 62.4
144.5468, 5.502, 2.0757, 73.0, 64.6
144.7387, 4.999, 1.9111, 73.1, 64.8
144.9149, 4.495, 1.751, 73.2, 65.6
145.107, 4.006, 1.5747, 73.3, 63.9
145.2989, 3.496, 1.4258, 73.4, 66.6
145.5067, 2.998, 1.2554, 73.5, 66.0
145.7308, 3.502, 1.4194, 73.6, 65.4
145.9388, 4.006, 1.5747, 73.7, 63.9
146.243, 4.503, 1.7334, 73.8, 63.3
146.5306, 4.997, 1.9121, 73.9, 65.0
146.7869, 5.5, 2.0679, 74.0, 64.0
147.0428, 5.999, 2.2363, 74.1, 64.3
147.3628, 5.5, 2.0718, 74.2, 64.3
147.6187, 4.991, 1.9268, 74.3, 66.6
147.8747, 4.499, 1.7471, 74.4, 65.0
148.0991, 4.0, 1.5835, 74.5, 65.2
148.3548, 3.503, 1.416, 74.6, 64.9
148.6108, 2.998, 1.2578, 74.7, 66.4
148.8507, 3.502, 1.4204, 74.8, 65.6
149.1868, 4.0, 1.5796, 74.9, 64.7
149.299, 4.508, 1.7373, 75.0, 63.6
149.603, 5.0, 1.9087, 75.1, 64.6
149.9031, 5.495, 2.0771, 75.2, 65.0
150.2108, 5.998, 2.2422, 75.3, 64.8
152.227, 5.496, 2.0942, 75.4, 66.5
152.5946, 5.004, 1.9102, 75.5, 64.6
152.947, 4.5, 1.7617, 75.6, 66.5
153.3469, 4.003, 1.5928, 75.7, 66.2
153.6989, 3.505, 1.4185, 75.8, 65.1
154.083, 3.003, 1.2544, 75.9, 65.5
154.7229, 3.506, 1.4189, 76.0, 65.2
154.9631, 4.003, 1.5869, 76.1, 65.5
155.2029, 4.503, 1.7559, 76.2, 65.8
157.2668, 5.004, 1.9136, 76.3, 64.9
157.6511, 5.499, 2.0923, 76.4, 66.2
158.5466, 5.998, 2.2603, 76.5, 66.3
159.2192, 5.493, 2.1084, 76.6, 67.8
159.4268, 5.005, 1.9224, 76.7, 65.7
159.6028, 4.499, 1.7686, 76.8, 67.3
159.7791, 4.011, 1.5879, 76.9, 65.3
160.0505, 3.501, 1.4316, 77.0, 67.2
160.5473, 3.004, 1.2603, 77.1, 66.5
160.8036, 3.501, 1.4287, 77.2, 66.7
161.0594, 4.002, 1.5938, 77.3, 66.4
161.3313, 4.509, 1.7485, 77.4, 64.8
161.6828, 4.998, 1.9272, 77.5, 66.4
162.1316, 5.499, 2.0972, 77.6, 66.7
162.9944, 6.0, 2.2568, 77.7, 66.0
163.6186, 5.502, 2.0972, 77.8, 66.6
163.8588, 4.991, 1.9487, 77.9, 68.8
164.307, 4.506, 1.7622, 78.0, 66.4
164.5773, 4.506, 1.7622, 78.1, 66.4
164.8511, 4.001, 1.6064, 78.2, 68.0
165.1388, 2.994, 1.2778, 78.3, 69.9
165.3949, 3.493, 1.4551, 78.4, 70.8
165.7628, 3.996, 1.6113, 78.5, 68.8
166.1629, 4.501, 1.7598, 78.6, 66.3
168.0831, 4.501, 1.7598, 78.7, 66.3
168.5469, 5.497, 2.1064, 78.8, 67.5
168.8192, 5.999, 2.2764, 78.9, 67.6
169.1547, 5.494, 2.1201, 79.0, 68.8
169.4748, 5.004, 1.9336, 79.1, 66.9
169.8751, 4.505, 1.7754, 79.2, 67.9
170.1307, 3.989, 1.623, 79.3, 70.5
170.3708, 3.492, 1.4463, 79.4, 69.6
170.6433, 2.997, 1.2808, 79.5, 70.2
170.9472, 3.504, 1.4326, 79.6, 67.1
171.2351, 4.0, 1.605, 79.7, 67.9
171.5071, 4.501, 1.7715, 79.8, 67.6
171.7951, 5.001, 1.9346, 79.9, 67.0
172.0989, 5.504, 2.1016, 80.0, 66.9
